time,x,z,theta,alpha
0.0,0.0,0.0,3.0,0.0
0.01,2.1431175844965067e-06,2.309874368376487e-06,2.999999969634879,-0.00037466680703416547
0.02,3.190186999401202e-05,3.574612478276233e-05,2.999998651953719,-0.003912617939262369
0.03,0.0001399460886927497,0.0001624698613820655,2.9999892835426363,-0.012046135980709315
0.04,0.00037825823364590234,0.0004544031024083835,2.999957702702244,-0.023826423187314573
0.05,0.0007922755086218545,0.0009820127521450177,2.999884639794928,-0.03779945313718506
0.06,0.0014208375211409176,0.0018104695673879017,2.99974858115818,-0.052776829935145916
0.07,0.0022980840678573696,0.002998811691011059,2.999527776347998,-0.06796138427399791
0.08,0.0034553850725274463,0.004600281282887673,2.999201368999207,-0.08286640173655259
0.09,0.004922818744341818,0.006663027571997925,2.998749939950985,-0.09720284483511446
0.1,0.00673017968133388,0.00923083248506375,2.998155719939485,-0.11078794435651014
0.11,0.00890761614091291,0.012343728455513216,2.997402643952413,-0.12348291086029992
0.12,0.011486000307434827,0.016038473522083777,2.9964763500401403,-0.13515381958062667
0.13,0.014497111273433883,0.020348888056387952,2.9953641798916517,-0.1456480582176696
0.14,0.017973684974973817,0.02530607064949056,2.9940552110849596,-0.1547806225684386
0.15,0.02194936546378853,0.030938512680885096,2.9925403349371735,-0.16232687001421622
0.16,0.026458578000377583,0.037272128970250416,2.9908123843552232,-0.16802023593447532
0.17,0.03153633518199977,0.04433021889663534,2.988866309843131,-0.17155482064028388
0.18,0.03721798131042279,0.05213336984603773,2.9866993969730853,-0.17259377330747885
0.19,0.04353887648093829,0.06069931337025622,2.9843115141581,-0.17078507486693972
0.2,0.050534019886960366,0.0700427441904519,2.9817053750436746,-0.16578653222853126
0.21,0.058237611388643876,0.08017511313660966,2.9788867952784557,-0.1573012273732875
0.22,0.06668255155232669,0.09110440706174833,2.975864919224075,-0.14512286316780737
0.23,0.0758998833271182,0.10283493123151426,2.9726523890529153,-0.12918705122485383
0.24,0.08591818344156776,0.11536711187502366,2.9692654276368735,-0.10961982351620542
0.25,0.09676291835530287,0.1286973374265851,2.9657238086824975,-0.08676999099242923
0.26,0.10845578752811692,0.14281785538003366,2.9620506934839317,-0.0612103756754383
0.27,0.1210140845054051,0.15771673691075452,2.9582723235352417,-0.03369772512332133
0.28,0.13445011188794195,0.17337791373866962,2.9544175711324034,-0.005093165240269544
0.29,0.148770687573029,0.1897812826360631,2.950517363978495,0.02373981798395948
0.3,0.1639767753746011,0.20690286508101513,2.946604011986509,0.05203288564382832
0.31,0.1800632634412607,0.22471500543264977,2.942710472442925,0.07918061003146143
0.32,0.197018900748024,0.24318659205798218,2.9388695920818013,0.10476599806657112
0.33,0.21482638841379115,0.262283291469618,2.935113361724367,0.12854725849958537
0.34,0.23346261164104887,0.2819677933938685,2.9314722127189126,0.15042011375303654
0.35000000000000003,0.25289899138432614,0.30220007183835446,2.927974376843961,0.1703722472614395
0.36,0.27310193247993186,0.32293767140429497,2.9246453246343,0.18844236986003005
0.37,0.2940333457229521,0.3441360284009214,2.9215072923039713,0.2046901257470803
0.38,0.3156512236311014,0.3657488331826326,2.91857890457979,0.21917783813412617
0.39,0.3379102520231653,0.3877284347411105,2.9158748991224037,0.2319620906041357
0.4,0.360762441301751,0.4100262823564978,2.9134059568605144,0.2430920970140221
0.41000000000000003,0.3841577623121936,0.43259339329102814,2.911178640709418,0.25261196781788625
0.42,0.40804477211557516,0.4553808310124348,2.909195442365979,0.2605646450770818
0.43,0.43237121541084017,0.4783401758202373,2.907454933163584,0.2669960243694356
0.44,0.4570845881051455,0.5014239692368317,2.905952010676564,0.27195841340364457
0.45,0.48213265096421254,0.5245861150406483,2.9046782284435606,0.275512940623365
0.46,0.5074638834858511,0.5477822230332401,2.903622192452762,0.2777308347325425
0.47000000000000003,0.5330278710479914,0.5709698860320548,2.9027700054337413,0.2786936810054912
0.48,0.5587756217518324,0.5941088855495655,2.9021057388738263,0.27849285585455125
0.49,0.5846598128846847,0.6171613265358148,2.901611913118767,0.27722837465523753
0.5,0.6106349702199596,0.640091705890584,2.901269967782686,0.27500738012002063
0.51,0.636657586153034,0.6628669228143453,2.901060707645776,0.27194246552140916
0.52,0.6626861847323856,0.6854562412730649,2.9009647128171565,0.2681499812001032
0.53,0.6886813428891673,0.7078312158920653,2.9009627057236407,0.26374842363419837
0.54,0.7146056776084725,0.7299655926048592,2.9010358710493933,0.2588569608946038
0.55,0.7404238085222937,0.7518351945915429,2.9011661277997183,0.2535941110973575
0.56,0.766102304592795,0.7734178027104412,2.901336355023275,0.24807656372125914
0.5700000000000001,0.7916096223713748,0.7946930380070641,2.901530574348453,0.24241811769731503
0.58,0.8169160419335173,0.815642252184353,2.901734093413455,0.2367287038866849
0.59,0.841993605145145,0.8362484302888009,2.9019336146009844,0.2311134609847937
0.6,0.8668160595213943,0.8564961084014326,2.9021173133644926,0.22567184071983437
0.61,0.8913588096654879,0.8763713078639812,2.9022748899977904,0.22049672820615435
0.62,0.9155988771639133,0.8958614865246461,2.9023975980868575,0.2156735745196882
0.63,0.9395148688803799,0.9149555066363274,2.902478252204778,0.21127954945032235
0.64,0.9630869528347972,0.9336436183527889,2.9025112167563147,0.20738273184937814
0.65,0.9862968402658499,0.9519174572116048,2.9024923773120594,0.20404136230669917
0.66,1.009127772044719,0.9697700535373941,2.9024190953361635,0.2013031876527569
0.67,1.0315645073220427,0.9871958513227495,2.902290146931058,0.19920492882397178
0.68,1.05359331214202,1.0041907338348597,2.9021056461071058,0.19777190298030234
0.6900000000000001,1.0752019457412145,1.0207520529502845,2.901866953132356,0.19701782759629344
0.7000000000000001,1.096379642361482,1.036878659044646,2.901576568714556,0.1969448288503273
0.71,1.1171170866424762,1.0525709281710622,2.901238015092062,0.1975436693962849
0.72,1.137406381012341,1.0678307832680938,2.9008557055315416,0.19879420197737205
0.73,1.1572410039528525,1.0826617062628632,2.9004348042099153,0.20066604585225958
0.74,1.1766157585571693,1.0970687381930162,2.8999810789513716,0.203119473209539
0.75,1.1955267113956316,1.1110584648707083,2.899500749748924,0.2061064832324915
0.76,1.2139711223207628,1.1246389861508732,2.8990003363748817,0.2095720328301108
0.77,1.231947366433852,1.1378198675296833,2.8984865086302762,0.21345538583621623
0.78,1.249454849957078,1.1506120735582335,2.8979659428627493,0.21769153720152923
0.79,1.2664939221645781,1.1630278833687142,2.8974451882715946,0.22221266576718784
0.8,1.2830657857886159,1.175080789423176,2.8969305462103336,0.2269495688671601
0.81,1.2991724084111802,1.1867853813509022,2.8964279652028644,0.23183303432488675
0.8200000000000001,1.314816437271196,1.1981572173834554,2.8959429537388552,0.23679511023039657
0.8300000000000001,1.3300011196742978,1.2092126863791306,2.895480512153364,0.2417702398297508
0.84,1.344730230812953,1.2199688637178994,2.8950450840810498,0.24669623735598298
0.85,1.3590080103286741,1.2304433644297512,2.894640527167461,0.25151508997040667
0.86,1.3728391084209441,1.2406541967995834,2.894270101976463,0.25617358040057686
0.87,1.3862285417757163,1.2506196193950843,2.893936477402518,0.26062373362600677
0.88,1.3991816590915105,1.2603580040296634,2.8936417504138956,0.26482309846162927
0.89,1.4117041155556311,1.2698877066485152,2.893387477636115,0.26873488068702206
0.9,1.4238018552878353,1.2792269475629374,2.8931747161357055,0.2723279482414681
0.91,1.4354811005329613,1.2883937019032305,2.8930040707698574,0.2755767309352075
0.92,1.4467483462461381,1.2974056006530548,2.8928757456039365,0.27846103728128124
0.93,1.4576103586646476,1.3062798421964248,2.892789597135815,0.2809658097302569
0.9400000000000001,1.468074176484563,1.3150331139694094,2.8927451873706707,0.2830808371714007
0.9500000000000001,1.478147113340941,1.323681523567872,2.8927418351309435,0.2848004404536969
0.96,1.4878367604106864,1.3322405385169704,2.892778664335993,0.2861231432640354
0.97,1.497150988102197,1.340724933847559,2.892854648322797,0.2870513373109884
0.98,1.5060979459532486,1.349148746634817,2.892968649587102,0.2875909476624783
0.99,1.5146860600191805,1.3575252367190727,2.893119454593982,0.2877511014575891
1.0,1.5229240271910705,1.3658668529314446,2.893305803533227,0.28754380116468536
1.01,1.5308208060345723,1.3741852042722418,2.8935264150778717,0.2869836021314905
1.02,1.53838560388254,1.382491035624604,2.893780006345927,0.286087293355666
1.03,1.5456278600478879,1.3907942077185191,2.8940653083702834,0.2848735801437604
1.04,1.5525572251473214,1.399103681182337,2.8943810774550593,0.2833627675405475
1.05,1.5591835366418316,1.407427504623773,2.8947261028437885,0.2815764439996567
1.06,1.5655167908062166,1.4157728067657138,2.8950992111509715,0.2795371656196268
1.07,1.5715671114370855,1.424145792721348,2.895499268018208,0.2772681422728896
1.08,1.5773447156960851,1.4325517445271967,2.895925177453216,0.27479292799599886
1.09,1.5828598775613563,1.440995026061894,2.896375879297603,0.272135118981236
1.1,1.588122889424028,1.4494790924645236,2.8968503452495864,0.26931806331703745
1.11,1.5931440224163598,1.4580065041314862,2.897347573842697,0.26636458718763156
1.12,1.5979334860923842,1.4665789453185174,2.8978665847520717,0.263296742501237
1.1300000000000001,1.6025013880993613,1.4751972473085515,2.8984064127671263,0.26013558083593913
1.1400000000000001,1.6068576944781603,1.4838614160310015,2.8989661017338593,0.2569009581650873
1.1500000000000001,1.6110121912126458,1.4925706639383127,2.899544698732401,0.2536113740705133
1.16,1.6149744476127226,1.5013234458659495,2.90014124871617,0.25028384812026716
1.17,1.6187537820641404,1.5101174985266825,2.9007547897988384,0.2469338348498013
1.18,1.6223592306124668,1.5189498832230641,2.901384349334851,0.24357517743084517
1.19,1.6257995187714356,1.5278170313065924,2.9020289408993074,0.24022009873885045
1.2,1.6290830368603455,1.5367147918707074,2.9026875622343815,0.23687922723568447
1.21,1.6322178190847778,1.54563848113896,2.9033591941929586,0.23356165395722334
1.22,1.6352115264832345,1.5545829330000325,2.904042800676597,0.23027501600575895
1.23,1.638071433772835,1.5635425501473865,2.9047373295349463,0.22702560134106906
1.24,1.640804420043125,1.572511355302019,2.905441714367952,0.22381846936144079
1.25,1.643416963171024,1.5814830420302022,2.9061548771508967,0.22065758176051425
1.26,1.6459151377640406,1.5904510247118444,2.9068757315857936,0.21754593840817718
1.27,1.6483046163845345,1.5994084872665093,2.9076031870708032,0.2144857134869951
1.28,1.6505906737657012,1.608348430300435,2.908336153172042,0.21147838776201122
1.29,1.6527781937001962,1.6172637163963806,2.9090735444789924,0.2085248736093985
1.3,1.6548716782643889,1.6261471133263399,2.9098142857252713,0.20562563021881086
1.31,1.6568752590342135,1.6349913350229863,2.910557317060175,0.20278076716290544
1.32,1.6587927099511588,1.6437890801974462,2.911301599362592,0.19999013525328835
1.33,1.660627461507636,1.652533068537396,2.9120461194969876,0.1972534042448531
1.34,1.6623826159381858,1.6612160744597375,2.9127898954205707,0.19457012749178562
1.35,1.6640609631251562,1.6698309584258217,2.913531981061005,0.19193979409076808
1.36,1.6656649969531088,1.67837069585436,2.914271470894613,0.18936186937127936
1.37,1.6671969318739654,1.6868284036880081,2.915007504165606,0.1868358248170406
1.3800000000000001,1.6686587194736093,1.695197364684651,2.915739268697183,0.1843611586385308
1.3900000000000001,1.6700520648593726,1.7034710495142809,2.916466004255129,0.18193740827825694
1.4000000000000001,1.6713784427158105,1.711643136747786,2.9171870054337457,0.1795641561328492
1.41,1.672639112902819,1.7197075308257426,2.917901624042457,0.17724102973315928
1.42,1.673835135495113,1.727658378094191,2.9186092709792373,0.17496769754804053
1.43,1.6749673851850855,1.7354900809911378,2.919309417584167,0.17274386148020296
1.44,1.6760365649920106,1.7431973104628171,2.9200015964729245,0.17056924701229548
1.45,1.67704321923937,1.7507750166832086,2.920685401855985,0.16844359184509802
1.46,1.6779877457788235,1.758218438144431,2.921360489354745,0.16636663375262017
1.47,1.6788704074540777,1.7655231091798917,2.922026575330785,0.1643380982647749
1.48,1.6796913428107416,1.7726848659767827,2.922683435749108,0.16235768667974543
1.49,1.6804505760692978,1.7796998511299809,2.9233309046004186,0.1604250648069214
1.5,1.681148026387692,1.7865645167858035,2.923968871911418,0.15853985274843002
1.51,1.6817835164478636,1.7932756264215193,2.9245972813756484,0.15670161594344376
1.52,1.682356780406911,1.7998302553050856,2.925216127640617,0.15490985762490453
1.53,1.6828674712585885,1.8062257896792675,2.925825453289765,0.1531640127731356
1.54,1.6833151676545803,1.8124599247150484,2.9264253455602423,0.1514634435949256
1.55,1.683699380237539,1.818530661280982,2.9270159328394056,0.14980743650984865
1.56,1.6840195575392902,1.8244363015777303,2.9275973809844,0.14819520058749905
1.57,1.6842750914979683,1.830175443690329,2.928169889510082,0.14662586734953525
1.58,1.6844653226472155,1.8357469751145579,2.9287336876908645,0.1450984918283971
1.59,1.6845895450290207,1.8411500653179669,2.929289030621761,0.14361205475963723
1.6,1.6846470108793825,1.8463841574004405,2.9298361952829874,0.1421654657762374
1.61,1.6846369351328192,1.851448958923472,2.9303754766509305,0.14075756747022958
1.62,1.6845584997879304,1.8563444319813827,2.9309071838961214,0.1393871401885081
1.6300000000000001,1.6844108581718242,1.861070782591387,2.931431636706111,0.13805290743496665
1.6400000000000001,1.684193139136382,1.8656284494825188,2.9319491617678586,0.1367535417590834
1.6500000000000001,1.6839044512141519,1.8700180923658654,2.932460089440508,0.135487671020903
1.6600000000000001,1.6835438867562609,1.874240579770197,2.932964750645277,0.13425388493318996
1.67,1.6831105260692447,1.8782969765278676,2.933463473994758,0.13305074179261425
1.68,1.6826034415622164,1.882188530995729,2.9339565831792895,0.1318767753225648
1.69,1.6820217019104722,1.8859166620947678,2.9344443946233287,0.13073050156009514
1.7,1.6813643762365458,1.8894829462502187,2.9349272154200086,0.12961042572826298
1.71,1.68063053830499,1.892889104311101,2.9354053415474692,0.12851504904254893
1.72,1.6798192707228556,1.8961369885245238,2.935879056366107,0.1274428754060789
1.73,1.67892966913403,1.899228569635801,2.9363486293917704,0.12639241795309744
1.74,1.6779608463923388,1.9021659241804947,2.9368143153361568,0.12536220540369772
1.75,1.6769119366956415,1.904951222029125,2.937276353402315,0.12435078819542796
1.76,1.675782099661082,1.9075867142395009,2.937734966820289,0.1233567443593188
1.77,1.6745705243201867,1.9100747212656333,2.9381903626055506,0.12237868510937551
1.78,1.673276433011635,1.912417621566043,2.9386427315210115,0.12141526011590802
1.79,1.6718990851492084,1.9146178406481456,2.9390922482220483,0.12046516243445388
1.8,1.670437780842648,1.916677840579336,2.9395390715631198,0.11952713306366666
1.81,1.6688918643498398,1.9186001099895371,2.939983345044187,0.1185999651075282
1.82,1.6672607273398639,1.9203871545843771,2.940425197375194,0.1176825075196785
1.83,1.665543811947928,1.9220414881828989,2.940864743137336,0.11677366841057393
1.84,1.66374061360499,1.9235656242888128,2.9413020835206325,0.1158724179015686
1.85,1.661850683626896,1.9249620681998394,2.94173730711842,0.11497779051381747
1.86,1.6598736315500737,1.9262333096556534,2.942170490760712,0.114088887084042
1.87,1.6578091272031419,1.9273818160213574,2.942601700369892,0.11320487620358452
1.8800000000000001,1.655656902506199,1.92841002600027,2.943030991823838,0.11232499518169707
1.8900000000000001,1.6534167529919686,1.9293203438671047,2.943458411813321,0.11144855053855335
1.9000000000000001,1.651088539045373,1.9301151342103202,2.9438839986822707,0.11057491803793254
1.9100000000000001,1.648672186860433,1.9307967171705116,2.9443077832412605,0.1097035422738023
1.92,1.6461676891156318,1.9313673641601616,2.9447297895462783,0.10883393582903937
1.93,1.6435751053709884,1.9318292940488413,2.945150035636497,0.10796567802819965
1.94,1.640894562192062,1.9321846697970064,2.9455685342263007,0.1070984133095275
1.95,1.6381262530079175,1.9324355955208548,2.9459852933482624,0.10623184924423759
1.96,1.6352704377117195,1.9325841139702367,2.946400316945065,0.10536575423348378
1.97,1.6323274420140952,1.9326322044013364,2.9468136054095355,0.10449995491533655
1.98,1.6292976565606758,1.9325817808257124,2.9472251560729776,0.10363433331552038
1.99,1.6261815358263347,1.9324346906172916,2.9476349636428725,0.1027688237766242
2.0,1.6229795967995542,1.9321927134590169,2.948043020591756,0.10190340970100716
2.0100000000000002,1.6196924174711025,1.9318575606110364,2.9484493174996875,0.10103812014270065
2.02,1.616320635141774,1.9314308744825655,2.948853843353189,0.10017302628328417
2.0300000000000002,1.6128649445643641,1.9309142284898524,2.949256585803897,0.099308237826016
2.04,1.6093260959353122,1.9303091271829995,2.949657531390407,0.09844389934146634
2.05,1.6057048927515716,1.9296170066247391,2.950056665726924,0.09758018659656265
2.06,1.6020021895482544,1.9288392350046244,2.950453973662402,0.09671730289735272
2.07,1.5982188895324723,1.9279771134724608,2.950849439413814,0.09585547547395673
2.08,1.5943559421285602,1.9270318771751773,2.951243046677113,0.09499495193415028
2.09,1.5904143404495343,1.926004696481701,2.9516347787192907,0.09413599680983488
2.1,1.5863951187092185,1.9248966783807748,2.952024618454761,0.09327888821834328
2.11,1.5822993495889806,1.923708868037021,2.952412548509052,0.0924239146581306
2.12,1.5781281415724608,1.9224422504909233,2.952798551272557,0.0915713719559502
2.13,1.5738826362610667,1.9210977524887678,2.953182608946803,0.0907215603801381
2.14,1.5695640056823519,1.9196762444289488,2.9535647035854415,0.08987478193215999
2.15,1.5651734496027099,1.918178542411423,2.953944817131852,0.0890313378261399
2.16,1.5607121928551015,1.9166054103774681,2.9543229314549952,0.08819152616371227
2.17,1.5561814826917988,1.9149575623272876,2.9546990283848587,0.08735563980924642
2.18,1.5515825861713965,1.9132356646033966,2.9550730897485775,0.08652396446830052
2.19,1.5469167875885934,1.911440338228118,2.955445097408073,0.08569677697009347
2.2,1.54218538595451,1.9095721612839396,2.955815033299804,0.08487434375284937
2.21,1.537389692534584,1.9076316713258916,2.9561828794770304,0.08405691954908565
2.22,1.5325310284503648,1.9056193678155475,2.956548618154773,0.08324474626629075
2.23,1.5276107223508415,1.9035357145666887,2.95691223175751,0.08243805205697885
2.24,1.52263010815826,1.90138114219313,2.9572737029694762,0.08163705057082064
2.25,1.5175905228927462,1.8991560505496667,2.9576330147873167,0.08084194038043394
2.2600000000000002,1.5124933045794287,1.8968608111575804,2.957990150574739,0.08005290457147513
2.27,1.5073397902411723,1.8944957696066174,2.95834509411872,0.07927011048689912
2.2800000000000002,1.5021313139794772,1.8920612479258496,2.9586978296867534,0.0784937096146478
2.29,1.4968692051455754,1.889557546916318,2.959048342084592,0.07772383760757831
2.3000000000000003,1.491554786603267,1.8869849484388554,2.959396616713885,0.07696061442414555
2.31,1.4861893730845859,1.8843437176509912,2.9597426396291238,0.07620414457819785
2.32,1.4807742696389568,1.8816341051873329,2.9600863975932814,0.07545451748622267
2.33,1.4753107701761188,1.8788563492783275,2.960427878131574,0.07471180790047732
2.34,1.4698001561027303,1.8760106778027907,2.9607670695827655,0.07397607641664887
2.35,1.4642436950522393,1.8730973102700894,2.961103961147498,0.07324737004499363
2.36,1.4586426397073058,1.870116459728341,2.9614385429331525,0.07252572283429982
2.37,1.452998226713789,1.8670683345954697,2.961770805994804,0.07181115653848381
2.38,1.4473116756850686,1.8639531404104186,2.962100742371882,0.0711036813161598
2.39,1.4415841882952396,1.8607710815022724,2.962428345120213,0.07040329645410334
2.4,1.4358169474595346,1.8575223625754793,2.962753608339163,0.06970999110614919
