time,x,z,theta,alpha
0.0,0.2,3.0,0.0,0.4
0.01,0.1999777581152397,3.000010081480176,0.01924066047875,0.4014368741927661
0.02,0.1999313558589443,3.0000386104009555,0.06958558292433176,0.40562697745210785
0.03,0.1999144159989298,3.0000801076284453,0.1383271649199193,0.41225274889405417
0.04,0.20000046331411084,3.000124115350848,0.21633841240884472,0.4208777922576032
0.05,0.20027248027213118,3.0001541179804505,0.2971681368107899,0.43100605252474533
0.06,0.2008155161743833,3.0001479181308564,0.37635090322189696,0.442124916566098
0.07,0.201711803685392,3.000079109508738,0.450885420224187,0.4537352132128866
0.08,0.20303785879252736,2.9999190808904483,0.5188429070487031,0.465370470359968
0.09,0.20486303458575114,2.9996390831368966,0.5790739667869198,0.4766078855623474
0.1,0.2072490421624345,2.9992120699934484,0.6309893229777324,0.4870734151583317
0.11,0.21025004022260615,2.998614180803258,0.674395903290217,0.4964430537048065
0.12,0.2139130001596269,2.997825838055473,0.7093747018986212,0.5044418896493935
0.13,0.21827815166503198,2.996832488254515,0.7361905192186778,0.510842030082037
0.14,0.22337939309905588,2.9956250357313734,0.755226239203437,0.5154600725689311
0.15,0.22924460882075254,2.99420002050238,0.7669360432026857,0.5181544933520209
0.16,0.2358958751095085,2.9925595839492094,0.771813147778226,0.5188231123120263
0.17,0.24334956164337143,2.990711256602887,0.7703685019643828,0.5174006660152196
0.18,0.2516163508574096,2.9886675941709013,0.7631175277023425,0.5138564491357716
0.19,0.260701206027366,2.9864456826287995,0.7505725190777416,0.5081919532749388
0.2,0.27060332269166354,2.9840665309906,0.7332387759127655,0.5004384270840107
0.21,0.2813160982735492,2.9815543708862724,0.7116129558887558,0.49065429313428904
0.22,0.29282715217924765,2.9789358845433442,0.6861824947135688,0.4789223786012915
0.23,0.3051184236446734,2.9762393862289835,0.6574252680071203,0.46534694381923497
0.24,0.31816636756132716,2.973493985628465,0.6258089513948172,0.450050521428042
0.25,0.33194225992443693,2.9707287640450653,0.5917897760160661,0.4331706060707489
0.26,0.34641261508700155,2.9679719949203167,0.5558105746025381,0.4148562577307709
0.27,0.3615397075081675,2.965250438506439,0.518298168179354,0.3952646986617826
0.28,0.3772821820616298,2.9625887364635886,0.47966025568021725,0.37455799298670994
0.29,0.39359573006676346,2.9600089259828244,0.4402820397450675,0.35289989882826134
0.3,0.41043380366865806,2.957530085366955,0.40052285445775,0.3304529756418238
0.31,0.4277483393613563,2.955168114671334,0.3607130591714225,0.3073760155102219
0.32,0.44549046230294936,2.952935646917416,0.32115143287853115,0.28382184847350567
0.33,0.4636111462586971,2.950842078357403,0.28210325316164914,0.25993555081832187
0.34,0.48206180892471207,2.9488937008902703,0.24379918072035361,0.23585306396405578
0.35000000000000003,0.5007948282948803,2.947093916328763,0.20643500291667113,0.21170021217069845
0.36,0.5197639718988358,2.9454435108256773,0.1701722250377641,0.1875920912355693
0.37,0.5389247365229067,2.9439409681743838,0.13513944190519891,0.16363278848595103
0.38,0.5582346009638799,2.942582802525359,0.10143437905002883,0.13991538693808564
0.39,0.5776531981882099,2.941363893851834,0.06912646389211324,0.11652220319664983
0.4,0.5971424158920929,2.940277812798907,0.03825977331168015,0.09352520887880883
0.41000000000000003,0.6166664359428596,2.9393171249662737,0.008856203271977718,0.07098658824567193
0.42,0.6361917236903873,2.9384736679017522,-0.01908128369757593,0.04895938945594903
0.43,0.6556869778804303,2.9377387969194926,-0.045565459290523136,0.027488232635581304
0.44,0.6751230511026698,2.9371035981960882,-0.07062178170838272,0.006610044130300821
0.45,0.6944728495704732,2.9365590694093315,-0.09428557769922621,-0.013645207617751488
0.46,0.7137112197289107,2.936096269493048,-0.11659950789557295,-0.03325379348911589
0.47000000000000003,0.73281482785464,2.93570643994654,-0.1376113462609823,-0.05219753631663426
0.48,0.7517620375386191,2.9353811006349257,-0.1573720848169528,-0.07046316436025048
0.49,0.7705327887885682,2.935112123227086,-0.17593435886611217,-0.08804171171820871
0.5,0.7891084814833605,2.9348917854163648,-0.19335117579669867,-0.10492796891935419
0.51,0.8074718650662904,2.934712808921184,-0.20967492206232385,-0.12111998472179974
0.52,0.8256069356746514,2.934568384022246,-0.2249566176793109,-0.1366186184671844
0.53,0.8434988413567938,2.934452183101991,-0.23924538505200546,-0.15142714112072564
0.54,0.861133795607773,2.934358365341659,-0.2525880985633535,-0.16555088228307502
0.55,0.8784989991420862,2.9342815744235313,-0.26502918260756014,-0.17899691991646471
0.56,0.8955825695982877,2.9342169307951527,-0.2766105280992479,-0.19177380922027956
0.5700000000000001,0.912373478718304,2.9341600197871562,-0.2873715005467684,-0.20389134696540923
0.58,0.928861496448828,2.934106876641069,-0.2973490161836423,-0.21536036760728572
0.59,0.9450371413602588,2.934053969299484,-0.3065776661477469,-0.22619256760752252
0.6,0.9608916367594168,2.9339981796374777,-0.3150898720910267,-0.23640035457393838
0.61,0.9764168718768944,2.933936783669126,-0.3229160597633113,-0.24599671805500942
0.62,0.9916053675313614,2.9338674311436526,-0.33008483996320964,-0.2549951190790962
0.63,1.0064502457059128,2.9337881248490887,-0.336623188747615,-0.26340939579699557
0.64,1.0209452025114143,2.933697199864188,-0.3425566209292832,-0.27125368285774243
0.65,1.0350844840555675,2.9335933029387036,-0.3479093526802387,-0.2785423424141757
0.66,1.04886286478174,2.9334753721352667,-0.3527044505220367,-0.2852899049108286
0.67,1.0622756278868013,2.933342616830445,-0.3569639651547546,-0.29151101804822216
0.68,1.0753185474710927,2.933194498145992,-0.360709049491257,-0.29722040254201504
0.6900000000000001,1.0879878721154597,2.9330307098618515,-0.3639600609586407,-0.30243281350117457
0.7000000000000001,1.1002803096194926,2.93285115984864,-0.3667366486401995,-0.3071630064356763
0.71,1.112193012671487,2.932655952047683,-0.36905782619134053,-0.31142570707115647
0.72,1.1237235652540145,2.932445369020184,-0.3709420317007186,-0.3152355842958276
0.73,1.1348699696193967,2.932219855082845,-0.3724071758087387,-0.31860722569457334
0.74,1.1456306336968325,2.931980000044509,-0.3734706794610522,-0.3215551152374418
0.75,1.1560043588175808,2.931726523556659,-0.37414950268274066,-0.3240936127859016
0.76,1.165990327666557,2.9314602600893735,-0.37446016572433355,-0.3262369351614499
0.77,1.1755880923881405,2.931182144543395,-0.3744187638656073,-0.32799913858875573
0.78,1.184797562791052,2.9308931985080005,-0.3740409770768083,-0.3293941023807859
0.79,1.193618994612026,2.930594517173271,-0.37334207563704164,-0.3304355137775903
0.8,1.2020529778108224,2.930287256904061,-0.3723369227019022,-0.3311368538848653
0.81,1.210100424880059,2.9299726234813566,-0.37103997470146416,-0.3315113846842891
0.8200000000000001,1.2177625591625478,2.9296518610148823,-0.3694652803388756,-0.3315721371060705
0.8300000000000001,1.2250409031764442,2.929326241528676,-0.36762647885154043,-0.3313319001662662
0.84,1.231937266954698,2.92899705521903,-0.3655367980930621,-0.33080321117820854
0.85,1.238453736410176,2.9286656013817014,-0.3632090528960967,-0.3299983470497857
0.86,1.2445926617415413,2.9283331800026673,-0.3606556440849333,-0.3289293166771906
0.87,1.2503566458976483,2.928001084004078,-0.35788855842259887,-0.3276078544418852
0.88,1.2557485331199771,2.9276705921344024,-0.3549193697009331,-0.3260454148116141
0.89,1.2607713975835944,2.927342962489208,-0.3517592411135735,-0.3242531680389745
0.9,1.265428532157417,2.927019426646584,-0.3484189289911536,-0.3222419969428538
0.91,1.2697234373042643,2.9267011843989508,-0.3449087879251469,-0.3200224947494522
0.92,1.2736598101404248,2.9263893990609438,-0.34123877726148744,-0.3176049639610245
0.93,1.2772415336733243,2.9260851933312475,-0.3374184689070836,-0.3149994162122238
0.9400000000000001,1.280472666234449,2.925789645684703,-0.33345705636125367,-0.31221557306628617
0.9500000000000001,1.2833574311230345,2.9255037872697263,-0.3293633648595494,-0.30926286769646005
0.96,1.2859002064742413,2.9252285992850733,-0.3251458624989279,-0.30615044739221337
0.97,1.2881055153636742,2.9249650108092635,-0.3208126722002916,-0.30288717682493854
0.98,1.2899780161582042,2.924713897055514,-0.31637158435651497,-0.29948164200418415
0.99,1.291522493121184,2.924476078024834,-0.31183007001066887,-0.2959421548528816
1.0,1.2927438472783301,2.9242523175299735,-0.3071952944096902,-0.29227675832859235
1.01,1.2936470875488215,2.924043322563171,-0.30247413078267227,-0.2884932320174279
1.02,1.2942373221445522,2.9238497429811017,-0.2976731741997257,-0.2845990981279242
1.03,1.2945197502389938,2.923672171481054,-0.2927987553764549,-0.28060162781369563
1.04,1.294499653905784,2.9235111438431374,-0.28785695430001057,-0.27650784775605386
1.05,1.2941823903259648,2.9233671394142124,-0.28285361356494,-0.2723245469408479
1.06,1.2935733842617507,2.9232405818102447,-0.27779435132022806,-0.26805828356744305
1.07,1.2926781207938116,2.9231318398148383,-0.2726845737426098,-0.2637153920319061
1.08,1.2915021383183025,2.923041228452841,-0.2675294869650802,-0.2593019899309804
1.09,1.2900510217992487,2.9229690102190675,-0.26233410840322796,-0.25482398503821563
1.1,1.288330396271404,2.9229153964433623,-0.2571032774353019,-0.25028708220855816
1.11,1.2863459205883139,2.9228805487744056,-0.2518416654045755,-0.24569679017272184
1.12,1.2841032814100337,2.9228645807658244,-0.24655378492441607,-0.24105842818765108
1.1300000000000001,1.2816081874247678,2.9228675595493137,-0.24124399847737082,-0.2363771325142976
1.1400000000000001,1.2788663637985695,2.92288950758058,-0.2359165263094404,-0.23165786269868127
1.1500000000000001,1.275883546847205,2.9229304044449886,-0.2305754536294767,-0.22690540763675113
1.16,1.2726654789242806,2.9229901887108123,-0.22522473713127353,-0.2221243914078535
1.17,1.2692179035197886,2.9230687598189524,-0.2198682108624222,-0.2173192788656216
1.18,1.265546560563304,2.923165979998922,-0.21450959146940024,-0.21249438097879475
1.19,1.261657181926181,2.9232816762017464,-0.2091524828526908,-0.2076538599178442
1.2,1.2575554871172148,2.9234156420412423,-0.20380038026905517,-0.20280173388631328
1.21,1.2532471791663853,2.923567639735905,-0.1984566739204676,-0.19794188169847218
1.22,1.2487379406914338,2.9237374020443245,-0.19312465207075483,-0.1930780471072458
1.23,1.244033430142176,2.923924634187723,-0.1878075037317444,-0.18821384288840434
1.24,1.2391392782175985,2.9241290157538065,-0.18250832096080716,-0.18335275468872547
1.25,1.2340610844509265,2.9243502025766888,-0.1772301008111694,-0.17849814464725777
1.26,1.2288044139579843,2.924587828588178,-0.17197574697535645,-0.17365325479995922
1.27,1.2233747943442992,2.9248415076361867,-0.1667480711606972,-0.1688212102788701
1.28,1.2177777127665133,2.92511083526649,-0.16154979423405097,-0.16400502231763006
1.29,1.212018613143784,2.925395390464459,-0.1563835471708847,-0.15920759107558602
1.3,1.2061028935149505,2.925694737353797,-0.15125187184160407,-0.15443170829298353
1.31,1.2000359035373376,2.92600842684965,-0.14615722166568385,-0.1496800597898126
1.32,1.1938229421231599,2.926335998263805,-0.14110196216171014,-0.14495522782080922
1.33,1.1874692552095618,2.926676980860004,-0.13608837141898383,-0.14025969329891863
1.34,1.1809800336584089,2.9270308953576736,-0.13111864051388591,-0.13559583789922486
1.35,1.1743604112820132,2.9273972553826613,-0.12619487389180267,-0.1309659460549598
1.36,1.1676154629910436,2.9277755688638054,-0.12131908973308225,-0.12637220685674366
1.37,1.1607502030609322,2.9281653393744116,-0.11649322031926514,-0.12181671586568962
1.3800000000000001,1.153769583513153,2.928566067417925,-0.11171911241371763,-0.11730147685044467
1.3900000000000001,1.1466784926078075,2.9289772516572956,-0.10699852766881122,-0.11282840345764722
1.4000000000000001,1.1394817534440147,2.929398390087726,-0.10233314306994008,-0.10839932082467124
1.41,1.1321841226646563,2.929828981152679,-0.09772455142495838,-0.10401596714290601
1.42,1.1247902892620982,2.9302685248031826,-0.0931742619060504,-0.0996799951791978
1.43,1.1173048734815643,2.930716523500635,-0.0886837006496173,-0.09539297376246245
1.44,1.109732425818903,2.9311724831634636,-0.08425421141847256,-0.09115638924187047
1.45,1.1020774261095532,2.931635914058117,-0.07988705632947793,-0.08697164692241537
1.46,1.0943442827055792,2.932106331635016,-0.07558341664871666,-0.08284007248310304
1.47,1.0865373317377127,2.9325832573101884,-0.07134439365538425,-0.0787629133824504
1.48,1.0786608364594095,2.933066219193441,-0.06717100957477035,-0.07474134025545484
1.49,1.070718986669994,2.933554752764009,-0.0630642085800005,-0.0707764483056966
1.5,1.0627158982140406,2.9340484014947212,-0.05902485786159577,-0.0668692586957621
1.51,1.0546556125542066,2.9345467174258073,-0.05505374876338169,-0.06302071993873062
1.52,1.0465420964148087,2.9350492616895383,-0.05115159798282979,-0.059231709293047885
1.53,1.0383792414935007,2.935555604986974,-0.04731904883353473,-0.05550303416271847
1.54,1.0301708642384877,2.9360653280181412,-0.04355667256721288,-0.05183543350438468
1.55,1.021920705688781,2.9365780218670223,-0.03986496975234533,-0.04822957924252057
1.56,1.0136324313750673,2.9370932883427865,-0.0362443717063746,-0.044686077693656866
1.57,1.0053096312788403,2.937610740278727,-0.03269524197819319,-0.04120547100026366
1.58,0.9969558198475058,2.9381300017904093,-0.029217877877528917,-0.03778823857465233
1.59,0.9885744360632454,2.938650708494555,-0.02581251204773148,-0.03443479855301538
1.6,0.9801688435634848,2.9391725076902144,-0.022479314078393094,-0.031145509259501044
1.61,0.9717423308108802,2.9396950585037938,-0.01921839215418931,-0.027920670680018335
1.62,0.963298111310798,2.94021803199951,-0.016029794736301443,-0.024760525945286146
1.6300000000000001,0.9548393238743221,2.940741111256862,-0.012913512272776009,-0.02166526282247612
1.6400000000000001,0.9463690329248861,2.9412639914166943,-0.009869478934187475,-0.01863501521465245
1.6500000000000001,0.9378902288466772,2.9417863796974353,-0.0068975743709957585,-0.015669864667081514
1.6600000000000001,0.9294058283730207,2.9423079953830826,-0.003997625489027868,-0.012769841879369394
1.67,0.9209186750129993,2.942828569784494,-0.0011694082395623624,-0.009934928222285007
1.68,0.9124315395146156,2.9433478461755245,0.0015873505794455952,-0.007165057258040052
1.69,0.9039471203628529,2.9438655797055415,0.004272971514392668,-0.004460116262723421
1.7,0.895468044311033,2.944381537289813,0.00688782064262726,-0.001819947749526416
1.71,0.8869968669439185,2.9448954974792527,0.00943230775785557,0.0007556490086546158
1.72,0.8785360732710416,2.9454072503109683,0.011906884557498505,0.0032669164586903985
1.73,0.8700880783487878,2.9459165971410344,0.014312042835048224,0.005714137250246278
1.74,0.8616552279297978,2.9464233504608766,0.016648312680371667,0.00809763272386466
1.75,0.8532397991382867,2.9469273336986217,0.018916260690801916,0.010417761405611438
1.76,0.8448440011699169,2.9474283810067274,0.021116488195747143,0.012674917509796548
1.77,0.8364699760148917,2.9479263370371727,0.023249629497431645,0.014869529451271775
1.78,0.8281197992029724,2.9484210567054494,0.025316350130264294,0.01700205836879433
1.79,0.8197954805691475,2.9489124049445525,0.02731734514120737,0.019072996660923113
1.8,0.8114989650387181,2.9494002564501267,0.029253337393393124,0.02108286653588638
1.81,0.8032321334305876,2.9498844954178876,0.031125075895107518,0.023032218576825206
1.82,0.7949968032775759,2.950365015274387,0.03293333415613018,0.024921630323777363
1.83,0.7867947296626019,2.9508417184021556,0.03467890857328784,0.02675170487372109
1.84,0.7786276060696081,2.9513145158602008,0.0363626168469452,0.028523069499948636
1.85,0.7704970652481252,2.9517833271008103,0.037985296430023054,0.030236374291985533
1.86,0.7624046800904002,2.9522480796835526,0.03954780301099914,0.03189229081721381
1.87,0.7543519645200388,2.952708708987326,0.04105100903221275,0.033491510805296464
1.8800000000000001,0.746340374391136,2.95316515792127,0.042495802244660395,0.03503474485643656
1.8900000000000001,0.7383713083968929,2.953617376635301,0.043883084300336835,0.03652272117443796
1.9000000000000001,0.7304461089867469,2.9540653222309925,0.04521376938304471,0.03795618432546636
1.9100000000000001,0.7225660632910593,2.9545089584734825,0.04648878287846633,0.03933589402333933
1.92,0.7147324040524379,2.9549482555050433,0.04770906008416426,0.04066262394210271
1.93,0.7069463105627871,2.955383189560905,0.04887554496005302,0.041937160556578805
1.94,0.6992089096052113,2.955813742687895,0.04998918891976293,0.04316030201149916
1.95,0.6915212763999145,2.9562399024664,0.05105094966319978,0.0443328570197622
1.96,0.6838844355532672,2.9566616617361268,0.05206179005049012,0.04545564379028357
1.97,0.6762993620092363,2.9570790183261075,0.05302267701739255,0.04652948898583518
1.98,0.6687669820023954,2.957491974789336,0.05393458053215034,0.04755522671119815
1.99,0.6612881740117589,2.9579005381424106,0.05479847259366072,0.048533697531884995
2.0,0.6538637697147096,2.958304719610507,0.05561532627074065,0.04946574752361817
2.0100000000000002,0.6464945549403092,2.9587045343779756,0.05638611478217921,0.05035222735268537
2.02,0.6391812706213101,2.9591000013448356,0.05711181061718179,0.051193991387227564
2.0300000000000002,0.631924613744209,2.9594911428893838,0.05779338469573236,0.051991896839452746
2.04,0.6247252382967057,2.9598779846371315,0.05843180556832619,0.052746802938708766
2.05,0.6175837562119586,2.9602605552362373,0.05902803865445775,0.053459570135290284
2.06,0.6105007383090486,2.9606388861395825,0.0595830455191858,0.05413105933480021
2.07,0.6034767152290881,2.9610130113936095,0.06009778318704129,0.054762131162833426
2.08,0.5965121783664366,2.961382967434016,0.06057320349249239,0.05535364525970115
2.09,0.5896075807945067,2.961748792888378,0.06101025246613555,0.05590645960486784
2.1,0.5827633381856681,2.9621105283857494,0.061409869755741094,0.05642142987072878
2.11,0.5759798297247783,2.962468216373265,0.061772988081247385,0.05689940880531613
2.12,0.5692573990158961,2.962821900939756,0.06210053272276755,0.05734124564348373
2.13,0.5625963549817496,2.9631716276463687,0.06239342104064837,0.05774778554608646
2.14,0.5559969727555586,2.9635174433641525,0.062652562026601,0.05811986906663871
2.15,0.549459494564829,2.9638593961185817,0.0628788558849078,0.0584583316449082
2.16,0.5429841306067602,2.964197534940943,0.06307319364269903,0.058764003126875825
2.17,0.536571059914925,2.964531909726522,0.06323645678828621,0.05903770731047018
2.18,0.5302204312169053,2.9648625710995,0.06336951693653635,0.05928026151646546
2.19,0.5239323637825826,2.965189570284461,0.06347323552027219,0.05949247618391493
2.2,0.517706948262806,2.96551295898441,0.06354846350668805,0.059675154489477876
2.21,0.5115442475181762,2.96583278926517,0.06359604113777831,0.05982909198998667
2.22,0.5054442974377029,2.966149113446044,0.06361679769378625,0.05995507628759126
2.23,0.499407107747114,2.966461983996601,0.06361155127869413,0.06005388671681209
2.24,0.4934326628066071,2.9667714534394474,0.06358110862679082,0.06012629405282782
2.25,0.48752092239785616,2.9670775742588336,0.06352626492937166,0.06017306024032214
2.2600000000000002,0.48167182250009877,2.9673803988149436,0.06344780368064407,0.060194938142213564
2.27,0.47588527605514697,2.9676799792637145,0.06334649654193486,0.060192671307593995
2.2800000000000002,0.47016117372117994,2.9679763674820197,0.06322310322331755,0.06016699375820494
2.29,0.464499384615191,2.968269614998055,0.06307837138180218,0.060118629792785594
2.3000000000000003,0.45889975704397645,2.9685597729267585,0.06291303653525576,0.06004829380863335
2.31,0.4533621192235667,2.968846891910102,0.06272782199124699,0.05995669013972529
2.32,0.44788627998701397,2.9691310220620744,0.06252343879003625,0.059844512910758346
2.33,0.44247202948046405,2.969412212918199,0.062300585660958537,0.05971244590647618
2.34,0.43711913984745004,2.9696905133894047,0.062059948991474996,0.05956116245566199
2.35,0.4318273659013601,2.9699659717200877,0.06180220280819601,0.05939132532918879
